 1             4.959408E-02                1.241092      91 
 3.4201        0.0000915 
 3.42028       0.0002952 
 3.42          0.001058 
 3.42          0.0002038 
 3.42          0.0001869 
 3.42          0.0001497 
 3.422         0.0000416 
 3.422         0.0000612 
 3.4223        0.0000175 
 3.42247       0.0000163 
 3.42291       0.0000163 
 3.423         0.0000015 
 3.42399       0.0000005 
 3.42428       0.0000004 
 3.4254        0.0000003 
 3.42606       0.0000002 
 3.4268        0.0000002 
 3.42756       0.0000001 
 3.42825       0.0000001 
 3.4289        0 
 3.42976       0 
 3.43078       0 
 3.43192       0 
 3.43298       0 
 3.43396       0 
 3.43487       0 
 3.43572       0 
 3.43651       0 
 3.43726       0 
 3.43796       0 
 3.43876       0 
 3.43966       0 
 3.4405        0 
 3.44132       0 
 3.44228       0 
 3.44319       0 
 3.44405       0 
 3.44487       0 
 3.44559       0 
 3.44627       0 
 3.44691       0 
 3.44753       0 
 3.44812       0 
 3.44946       0 
 3.45108       0 
 3.45264       0 
 3.45413       0 
 3.45557       0 
 3.45695       0 
 3.45828       0 
 3.46082       0 
 3.46342       0 
 3.46592       0.0000001 
 3.46834       0.0000001 
 3.47067       0.0000001 
 3.47293       0.0000001 
 3.4751        0.0000001 
 3.47721       0.0000001 
 3.47925       0.0000001 
 3.48202       0.0000002 
 3.48496       0.0000004 
 3.4878        0.0000005 
 3.49056       0.0000007 
 3.49324       0.0000008 
 3.49584       0.0000009 
 3.49836       0.000001 
 3.50082       0.0000012 
 3.5032        0.0000013 
 3.50551       0.0000014 
 3.50776       0.0000015 
 3.50995       0.0000016 
 3.51209       0.0000017 
 3.51692       0.0000218 
 3.52232       0.0000463 
 3.52758       0.0000703 
 3.5327        0.0000936 
 3.5377        0.0001163 
 3.54257       0.0001385 
 3.54733       0.0001602 
 3.55196       0.0001813 
 3.55649       0.0002019 
 3.56091       0.000222 
 3.56523       0.0002417 
 3.56945       0.0002609 
 3.57357       0.0002797 
 3.5776        0.000298 
 3.58154       0.0003159 
 3.5854        0.0003335 
 3.58917       0.0003506 
 3.59285       0.0003674 
 3.59646       0.0003839 
 3.6           0.0004 
Spectral Range (1100, 4000)
